nm,%R,dec
250,94,404695
251,94,626906
252,94,642404
253,94,768314
254,94,950956
255,94,972642
256,94,979642
257,95,28295
258,95,45873
259,95,120736
260,95,58884
261,95,137689
262,95,208218
263,95,127263
264,94,98472
265,95,11703
266,95,197728
267,95,176393
268,95,180652
269,95,90757
270,95,142689
271,95,19788
272,95,212557
273,95,332419
274,95,335759
275,95,370257
276,95,264446
277,95,221485
278,95,439254
279,95,452942
280,95,535621
281,95,571657
282,95,567066
283,95,629684
284,95,702347
285,95,730437
286,95,806944
287,95,866283
288,95,828743
289,95,937631
290,96,27813
291,96,12087
292,96,178536
293,96,189098
294,96,144299
295,96,228024
296,96,271568
297,96,369894
298,96,367288
299,96,290208
300,96,43366
301,96,449905
302,96,421348
303,96,488446
304,96,538795
305,96,524923
306,96,491664
307,96,571828
308,96,65082
309,96,600267
310,96,598107
311,96,545695
312,96,509022
313,96,610567
314,96,587185
315,96,446908
316,96,577417
317,96,494128
318,96,427516
319,96,311981
320,96,93692
321,96,170368
322,96,452603
323,96,337567
324,96,124953
325,96,173635
326,96,22758
327,96,141743
328,96,268269
329,96,168942
330,96,170429
331,96,301628
332,96,285378
333,95,860572
334,95,838331
335,95,83848
336,95,94013
337,96,326533
338,96,218239
339,95,97849
340,95,877755
341,96,14176
342,95,98814
343,95,700871
344,95,726783
345,95,869995
346,95,961826
347,96,8501
348,96,64961
349,96,172073
350,96,115235
351,96,79405
352,95,984407
353,96,194779
354,96,160786
355,96,723
356,96,114927
357,96,180686
358,96,41616
359,95,934933
360,95,982194
361,96,270501
362,96,296093
363,96,9777
364,96,108519
365,96,74561
366,95,989224
367,96,40319
368,96,12482
369,95,952962
370,95,886022
371,95,929761
372,96,16439
373,96,123804
374,96,347558
375,96,130727
376,95,820991
377,95,97693
378,96,33057
379,96,23221
380,96,183952
381,96,136082
382,95,977609
383,96,85935
384,96,186169
385,96,53376
386,96,148858
387,96,220403
388,96,112843
389,96,142946
390,96,138738
391,96,162366
392,96,178455
393,96,156138
394,96,163076
395,96,114041
396,96,27164
397,96,102784
398,96,166931
399,96,7552
400,96,55082
401,96,52199
402,96,52005
403,96,70985
404,96,20818
405,96,7883
406,96,42221
407,96,37024
408,96,71693
409,96,119448
410,96,81672
411,96,18651
412,95,999178
413,96,94421
414,96,245395
415,96,193347
416,96,157497
417,96,129228
418,96,166826
419,96,251226
420,96,277073
421,96,223564
422,96,130928
423,96,20442
424,96,192089
425,96,144385
426,96,224598
427,96,316212
428,96,287642
429,96,170449
430,96,2493
431,96,314662
432,96,274014
433,96,215311
434,96,137547
435,96,161896
436,96,226731
437,96,248384
438,96,138116
439,96,64265
440,96,133971
441,96,223134
442,96,204743
443,96,239074
444,96,288315
445,96,303335
446,96,294217
447,96,219115
448,96,179731
449,96,222725
450,96,345744
451,96,349567
452,96,270529
453,96,247035
454,96,235119
455,96,230476
456,96,283266
457,96,296004
458,96,25247
459,96,242998
460,96,223155
461,96,218363
462,96,278576
463,96,321416
464,96,336623
465,96,273485
466,96,267555
467,96,301263
468,96,29616
469,96,27336
470,96,293726
471,96,303367
472,96,263082
473,96,217482
474,96,230464
475,96,26847
476,96,271611
477,96,269741
478,96,303123
479,96,32379
480,96,323364
481,96,260258
482,96,28798
483,96,286531
484,96,237277
485,96,216504
486,96,269567
487,96,326671
488,96,279816
489,96,248749
490,96,237765
491,96,22654
492,96,254133
493,96,303139
494,96,329305
495,96,333914
496,96,318393
497,96,27476
498,96,239019
499,96,249572
500,96,289948
501,96,270464
502,96,264848
503,96,274668
504,96,311589
505,96,274648
506,96,236987
507,96,293023
508,96,300683
509,96,29426
510,96,291227
511,96,256611
512,96,324767
513,96,346165
514,96,315316
515,96,336671
516,96,311495
517,96,282933
518,96,293017
519,96,30577
520,96,287914
521,96,311481
522,96,325559
523,96,284585
524,96,290637
525,96,287553
526,96,278547
527,96,304643
528,96,293725
529,96,301318
530,96,297566
531,96,290597
532,96,26467
533,96,248832
534,96,266934
535,96,234859
536,96,252033
537,96,258875
538,96,245724
539,96,229567
540,96,212918
541,96,247464
542,96,332485
543,96,284979
544,96,243582
545,96,26137
546,96,193993
547,96,316307
548,96,280697
549,96,2909
550,96,241021
551,96,194786
552,96,177579
553,96,289043
554,96,253254
555,96,200657
556,96,188992
557,96,278455
558,96,324382
559,96,193869
560,96,23912
561,96,250392
562,96,197581
563,96,136692
564,96,189138
565,96,261657
566,96,288439
567,96,24348
568,96,229329
569,96,186095
570,96,19071
571,96,220605
572,96,171213
573,96,196164
574,96,163176
575,96,23786
576,96,278239
577,96,207714
578,96,257843
579,96,203403
580,96,212897
581,96,144944
582,96,107955
583,96,115442
584,96,119184
585,96,173993
586,96,160069
587,96,162708
588,96,93456
589,96,167886
590,96,209181
591,96,109479
592,96,125923
593,96,124801
594,96,244718
595,96,234431
596,96,199802
597,96,119219
598,96,66945
599,96,128327
600,96,180732
601,96,202573
602,96,235047
603,96,154724
604,96,117339
605,96,149641
606,96,163737
607,96,112936
608,96,123399
609,96,33025
610,96,97334
611,96,79897
612,96,31559
613,96,134148
614,96,105029
615,96,104792
616,96,167908
617,96,181367
618,96,10914
619,96,72769
620,96,83882
621,96,14931
622,96,103996
623,96,132451
624,96,103155
625,95,997821
626,96,1869
627,96,104772
628,96,37855
629,96,32731
630,96,3361
631,96,27037
632,96,72773
633,96,24193
634,96,36827
635,96,6989
636,96,10753
637,96,11111
638,96,137524
639,96,106494
640,96,48137
641,95,987377
642,96,8456
643,96,68437
644,96,98301
645,95,998945
646,96,103543
647,96,161066
648,96,27084
649,96,97612
650,96,10749
651,95,985216
652,96,123728
653,96,82968
654,96,62937
655,95,963871
656,96,76924
657,96,22641
658,96,23737
659,95,995174
660,96,142262
661,96,52655
662,96,21849
663,96,17626
664,95,950156
665,95,965904
666,96,80942
667,96,33478
668,96,49117
669,96,34553
670,96,16167
671,96,69318
672,96,70966
673,95,942312
674,95,90505
675,96,38722
676,95,990127
677,96,135817
678,96,103125
679,96,27961
680,96,113926
681,96,42685
682,95,969965
683,95,949143
684,96,92138
685,96,31156
686,96,22309
687,95,95663
688,96,6685
689,96,25578
690,95,924758
691,96,8452
692,95,940143
693,95,895375
694,95,941619
695,96,29883
696,95,818149
697,96,19233
698,95,984703
699,95,962592
700,96,118316
701,95,978364
702,95,806081
703,95,879992
704,96,112103
705,95,922287
706,96,5795
707,95,902128
708,96,84348
709,96,24147
710,95,789891
711,95,915895
712,95,770698
713,95,969783
714,95,958711
715,96,2882
716,95,999817
717,95,990387
718,95,882568
719,96,13668
720,95,968846
721,95,870052
722,95,863828
723,95,928676
724,95,887533
725,96,121089
726,95,997086
727,95,813041
728,95,999242
729,95,831001
730,95,599651
731,95,719289
732,95,687851
733,95,927644
734,96,139325
735,96,99301
736,95,905353
737,96,227146
738,95,886064
739,95,874297
740,95,474028
741,95,553773
742,95,964008
743,95,929838
744,95,875342
745,95,954255
746,96,77734
747,95,735136
748,95,894369
749,95,879408
750,95,868015
751,95,880363
752,95,975684
753,96,522
754,95,792702
755,95,752943
756,95,876591
757,95,897872
758,96,19041
759,95,850458
760,95,953677
761,95,816268
762,95,647387
763,96,70227
764,95,806529
765,95,635156
766,95,491099
767,95,783812
768,95,865451
769,95,90381
770,95,994711
771,95,924312
772,95,974729
773,95,537196
774,95,628005
775,95,865218
776,95,829358
777,95,958713
778,95,6862
779,95,662511
780,95,708485
781,95,644218
782,95,742835
783,95,871198
784,95,863824
785,95,533882
786,95,905696
787,95,606655
788,95,65599
789,95,850623
790,95,626231
791,95,551574
792,95,877554
793,95,589541
794,95,846007
795,95,804049
796,95,593925
797,96,10129
798,95,847266
799,95,883055
800,96,18649
801,95,77815
802,95,957936
803,95,385455
804,95,361263
805,95,84502
806,96,127622
807,95,881772
808,95,868239
809,95,340469
810,95,541314
811,95,443843
812,95,774633
813,95,622192
814,95,701562
815,95,492072
816,95,823216
817,95,868929
818,95,445301
819,95,26454
820,95,705539
821,95,687298
822,95,625433
823,95,642213
824,95,652071
825,95,688594
826,95,606894
827,95,671359
828,95,605749
829,95,638825
830,95,678887
831,95,577871
832,95,654703
833,95,566352
834,95,617583
835,95,564936
836,95,544222
837,95,62787
838,95,593227
839,95,61497
840,95,621678
841,95,621784
842,95,598524
843,95,544771
844,95,619781
845,95,607864
846,95,495718
847,95,655427
848,95,568633
849,95,669454
850,95,548386
851,95,529613
852,95,617341
853,95,625047
854,95,583373
855,95,538798
856,95,612867
857,95,605781
858,95,543932
859,95,575854
860,95,545024
861,95,486714
862,95,581854
863,95,573751
864,95,565874
865,95,601068
866,95,549169
867,95,565527
868,95,543828
869,95,577967
870,95,58833
871,95,532563
872,95,554917
873,95,544852
874,95,541243
875,95,569618
876,95,53099
877,95,581414
878,95,537711
879,95,505465
880,95,570854
881,95,528245
882,95,538693
883,95,562034
884,95,533015
885,95,546489
886,95,501462
887,95,543014
888,95,523532
889,95,505892
890,95,519329
891,95,502104
892,95,539967
893,95,504478
894,95,474344
895,95,515816
896,95,475816
897,95,480258
898,95,472567
899,95,459637
900,95,484644
901,95,448748
902,95,469602
903,95,429283
904,95,422025
905,95,432038
906,95,401537
907,95,392319
908,95,408235
909,95,400082
910,95,383695
911,95,357756
912,95,390115
913,95,371556
914,95,359781
915,95,356018
916,95,357784
917,95,360147
918,95,336497
919,95,34006
920,95,352743
921,95,30282
922,95,319251
923,95,313227
924,95,292045
925,95,305327
926,95,286801
927,95,284641
928,95,288439
929,95,280472
930,95,279045
931,95,263758
932,95,286088
933,95,271066
934,95,267341
935,95,264315
936,95,253624
937,95,258628
938,95,248814
939,95,251701
940,95,275503
941,95,264832
942,95,260081
943,95,26347
944,95,265546
945,95,273234
946,95,278345
947,95,28249
948,95,289009
949,95,298282
950,95,306777
951,95,309459
952,95,333816
953,95,335034
954,95,356258
955,95,353967
956,95,354113
957,95,372897
958,95,363463
959,95,381774
960,95,399408
961,95,403875
962,95,408068
963,95,408117
964,95,391355
965,95,413961
966,95,397786
967,95,423562
968,95,416191
969,95,38905
970,95,398976
971,95,388332
972,95,402866
973,95,391919
974,95,380828
975,95,375279
976,95,365411
977,95,367352
978,95,379284
979,95,354492
980,95,367073
981,95,35284
982,95,35826
983,95,354095
984,95,350958
985,95,349335
986,95,332523
987,95,330216
988,95,331974
989,95,314335
990,95,317237
991,95,301665
992,95,303611
993,95,2839
994,95,287178
995,95,273502
996,95,262171
997,95,244664
998,95,248124
999,95,239516
1000,95,220625
1001,95,228971
1002,95,223212
1003,95,22537
1004,95,213768
1005,95,213555
1006,95,216962
1007,95,204029
1008,95,213141
1009,95,214997
1010,95,224817
1011,95,211766
1012,95,21132
1013,95,213911
1014,95,201616
1015,95,20798
1016,95,191734
1017,95,204779
1018,95,198618
1019,95,185812
1020,95,191651
1021,95,184622
1022,95,180579
1023,95,179728
1024,95,186657
1025,95,183423
1026,95,176053
1027,95,180196
1028,95,184032
1029,95,178025
1030,95,18047
1031,95,188199
1032,95,180905
1033,95,179429
1034,95,185267
1035,95,16909
1036,95,180731
1037,95,181028
1038,95,171482
1039,95,177664
1040,95,184655
1041,95,177238
1042,95,172965
1043,95,165239
1044,95,169249
1045,95,190457
1046,95,180352
1047,95,168374
1048,95,162855
1049,95,160145
1050,95,150943
1051,95,149407
1052,95,14189
1053,95,15752
1054,95,150607
1055,95,131005
1056,95,140322
1057,95,131872
1058,95,139884
1059,95,136543
1060,95,134078
1061,95,130579
1062,95,125673
1063,95,126933
1064,95,120098
1065,95,114542
1066,95,130964
1067,95,120517
1068,95,126334
1069,95,127882
1070,95,124211
1071,95,128648
1072,95,114779
1073,95,115876
1074,95,117736
1075,95,106918
1076,95,98175
1077,95,85651
1078,95,73591
1079,95,95415
1080,95,81694
1081,95,77139
1082,95,76841
1083,95,71122
1084,95,75668
1085,95,8039
1086,95,85478
1087,95,84291
1088,95,71718
1089,95,679
1090,95,71278
1091,95,74255
1092,95,72038
1093,95,67128
1094,95,51803
1095,95,5587
1096,95,56552
1097,95,48899
1098,95,55611
1099,95,54392
1100,95,55211
1101,95,58011
1102,95,5457
1103,95,5344
1104,95,59656
1105,95,65447
1106,95,66692
1107,95,70699
1108,95,73726
1109,95,71972
1110,95,66765
1111,95,78515
1112,95,69548
1113,95,52549
1114,95,53639
1115,95,4188
1116,95,41968
1117,95,43942
1118,95,29582
1119,95,22964
1120,95,1914
1121,95,1675
1122,95,3425
1123,95,3114
1124,94,994042
1125,94,990027
1126,94,982015
1127,94,973029
1128,94,968694
1129,94,964159
1130,94,962172
1131,94,951798
1132,94,958523
1133,94,960005
1134,94,952548
1135,94,947944
1136,94,944095
1137,94,942929
1138,94,945808
1139,94,935432
1140,94,930805
1141,94,921743
1142,94,920925
1143,94,90727
1144,94,907316
1145,94,897029
1146,94,893109
1147,94,898928
1148,94,87817
1149,94,869953
1150,94,862451
1151,94,863321
1152,94,859268
1153,94,850704
1154,94,848025
1155,94,848848
1156,94,847304
1157,94,84572
1158,94,834247
1159,94,832107
1160,94,820653
1161,94,814651
1162,94,828962
1163,94,830843
1164,94,818244
1165,94,807152
1166,94,799268
1167,94,799867
1168,94,795571
1169,94,781115
1170,94,76804
1171,94,764791
1172,94,756238
1173,94,741928
1174,94,73484
1175,94,728118
1176,94,720662
1177,94,715099
1178,94,692827
1179,94,679103
1180,94,672625
1181,94,66552
1182,94,659824
1183,94,654893
1184,94,643719
1185,94,640927
1186,94,640707
1187,94,622904
1188,94,626721
1189,94,628508
1190,94,618934
1191,94,608132
1192,94,607824
1193,94,609143
1194,94,600691
1195,94,604978
1196,94,608203
1197,94,607313
1198,94,6163
1199,94,610697
1200,94,603736
1201,94,622859
1202,94,610075
1203,94,611898
1204,94,616422
1205,94,615439
1206,94,618431
1207,94,627553
1208,94,631617
1209,94,634541
1210,94,641917
1211,94,644314
1212,94,641293
1213,94,644259
1214,94,650215
1215,94,654767
1216,94,655608
1217,94,659122
1218,94,672259
1219,94,659275
1220,94,666215
1221,94,670278
1222,94,674806
1223,94,681571
1224,94,678729
1225,94,6909
1226,94,6979
1227,94,696508
1228,94,704834
1229,94,717036
1230,94,721616
1231,94,71342
1232,94,717329
1233,94,713223
1234,94,713217
1235,94,726565
1236,94,712842
1237,94,716162
1238,94,732185
1239,94,721865
1240,94,706249
1241,94,718926
1242,94,719018
1243,94,709568
1244,94,722541
1245,94,729787
1246,94,722844
1247,94,716797
1248,94,71541
1249,94,7129
1250,94,717624
1251,94,715455
1252,94,710867
1253,94,706268
1254,94,712479
1255,94,723862
1256,94,716552
1257,94,718024
1258,94,721304
1259,94,721219
1260,94,71552
1261,94,714155
1262,94,715372
1263,94,717958
1264,94,724774
1265,94,725925
1266,94,721119
1267,94,711581
1268,94,716705
1269,94,712344
1270,94,708378
1271,94,710773
1272,94,708863
1273,94,703622
1274,94,702076
1275,94,691295
1276,94,688033
1277,94,683837
1278,94,682989
1279,94,683317
1280,94,674039
1281,94,677564
1282,94,671628
1283,94,670222
1284,94,677156
1285,94,674352
1286,94,663557
1287,94,665826
1288,94,66438
1289,94,663772
1290,94,666141
1291,94,657462
1292,94,659522
1293,94,662647
1294,94,655517
1295,94,669471
1296,94,669936
1297,94,65327
1298,94,653348
1299,94,652147
1300,94,65334
1301,94,653863
1302,94,652338
1303,94,651999
1304,94,647692
1305,94,652442
1306,94,659213
1307,94,644371
1308,94,63896
1309,94,639451
1310,94,635326
1311,94,635816
1312,94,635867
1313,94,627633
1314,94,6269
1315,94,631911
1316,94,630928
1317,94,633743
1318,94,631692
1319,94,627954
1320,94,625259
1321,94,618121
1322,94,616068
1323,94,604015
1324,94,600494
1325,94,603245
1326,94,598914
1327,94,585807
1328,94,582685
1329,94,587262
1330,94,581294
1331,94,570657
1332,94,567733
1333,94,550315
1334,94,550551
1335,94,55271
1336,94,555891
1337,94,548925
1338,94,540895
1339,94,529243
1340,94,529325
1341,94,516528
1342,94,503954
1343,94,496373
1344,94,481339
1345,94,46394
1346,94,448662
1347,94,434988
1348,94,425511
1349,94,404357
1350,94,381919
1351,94,356064
1352,94,339815
1353,94,310093
1354,94,285475
1355,94,269353
1356,94,234427
1357,94,225447
1358,94,199267
1359,94,183608
1360,94,1629
1361,94,143749
1362,94,122016
1363,94,109108
1364,94,86742
1365,94,73339
1366,94,63938
1367,94,40081
1368,94,33343
1369,94,24942
1370,94,4211
1371,93,990356
1372,93,977108
1373,93,957388
1374,93,944208
1375,93,93729
1376,93,933631
1377,93,916294
1378,93,906864
1379,93,900398
1380,93,904692
1381,93,893233
1382,93,909115
1383,93,898052
1384,93,907569
1385,93,916156
1386,93,904156
1387,93,914677
1388,93,914137
1389,93,908766
1390,93,901704
1391,93,90166
1392,93,903124
1393,93,882055
1394,93,879061
1395,93,862105
1396,93,861914
1397,93,855148
1398,93,847569
1399,93,850836
1400,93,838101
1401,93,83096
1402,93,840414
1403,93,824651
1404,93,835902
1405,93,84338
1406,93,842974
1407,93,838905
1408,93,859318
1409,93,865238
1410,93,855964
1411,93,858872
1412,93,872203
1413,93,866869
1414,93,888818
1415,93,85759
1416,93,863085
1417,93,869492
1418,93,864536
1419,93,862693
1420,93,875627
1421,93,871545
1422,93,882278
1423,93,885682
1424,93,888346
1425,93,888344
1426,93,905723
1427,93,909504
1428,93,907172
1429,93,905259
1430,93,917292
1431,93,907743
1432,93,918508
1433,93,908969
1434,93,920039
1435,93,924919
1436,93,909993
1437,93,928972
1438,93,900826
1439,93,914403
1440,93,909758
1441,93,907458
1442,93,924411
1443,93,916885
1444,93,919771
1445,93,931892
1446,93,919632
1447,93,914643
1448,93,921376
1449,93,929778
1450,93,940355
1451,93,94328
1452,93,948247
1453,93,953956
1454,93,960781
1455,93,969834
1456,93,970115
1457,93,968882
1458,93,994551
1459,93,971694
1460,93,973916
1461,93,964307
1462,93,984274
1463,93,968236
1464,93,958168
1465,93,952377
1466,93,96048
1467,93,957121
1468,93,946584
1469,93,948274
1470,93,947667
1471,93,942346
1472,93,934143
1473,93,941286
1474,93,939799
1475,93,951144
1476,93,945639
1477,93,968055
1478,93,960067
1479,93,954138
1480,93,962302
1481,93,962587
1482,93,966629
1483,93,970127
1484,93,962245
1485,93,971361
1486,93,978219
1487,93,975321
1488,93,982887
1489,93,981598
1490,93,983234
1491,93,986856
1492,93,992535
1493,93,993648
1494,93,989817
1495,93,99576
1496,93,993926
1497,93,987618
1498,93,997843
1499,93,998932
1500,93,993118
1501,94,4733
1502,94,16398
1503,94,14276
1504,94,1192
1505,94,17324
1506,94,25263
1507,94,12586
1508,94,3192
1509,94,14356
1510,94,25929
1511,94,35253
1512,94,30189
1513,94,32229
1514,94,45503
1515,94,13912
1516,94,25415
1517,94,34934
1518,94,8041
1519,94,17639
1520,94,19433
1521,94,38345
1522,94,19697
1523,94,30278
1524,94,4655
1525,94,47156
1526,94,40963
1527,94,3846
1528,94,4412
1529,94,45262
1530,94,53995
1531,94,25728
1532,94,41674
1533,94,41163
1534,94,25592
1535,94,33803
1536,94,24655
1537,94,29721
1538,94,31552
1539,94,35106
1540,94,26954
1541,94,34906
1542,94,29507
1543,94,31229
1544,94,33147
1545,94,1857
1546,94,43185
1547,94,21371
1548,94,16908
1549,94,34396
1550,94,28307
1551,94,41101
1552,94,26353
1553,94,30504
1554,94,14702
1555,94,25565
1556,94,31172
1557,94,36947
1558,94,30961
1559,94,28436
1560,94,33264
1561,94,20783
1562,94,33955
1563,94,23718
1564,94,64578
1565,94,32988
1566,94,36252
1567,94,43002
1568,94,30252
1569,94,3642
1570,94,41685
1571,94,23185
1572,94,4723
1573,94,35583
1574,94,48318
1575,94,36872
1576,94,40559
1577,94,29693
1578,94,34594
1579,94,26223
1580,94,23227
1581,94,18731
1582,94,16163
1583,94,40047
1584,94,15293
1585,94,30516
1586,94,35419
1587,94,25543
1588,94,24668
1589,94,20118
1590,94,14602
1591,94,10226
1592,94,5186
1593,94,5446
1594,94,6239
1595,93,988737
1596,94,10832
1597,93,984675
1598,93,989481
1599,93,968519
1600,93,985357
1601,93,985254
1602,93,97327
1603,93,985381
1604,93,980385
1605,93,973527
1606,93,956333
1607,93,971504
1608,93,96827
1609,93,95274
1610,93,962327
1611,93,956764
1612,93,955097
1613,93,949523
1614,93,937265
1615,93,932883
1616,93,916535
1617,93,915895
1618,93,91357
1619,93,910004
1620,93,899681
1621,93,893832
1622,93,884333
1623,93,893034
1624,93,885912
1625,93,851731
1626,93,856536
1627,93,848153
1628,93,853425
1629,93,833817
1630,93,827998
1631,93,806923
1632,93,816111
1633,93,802059
1634,93,783225
1635,93,779527
1636,93,782358
1637,93,765599
1638,93,746452
1639,93,721409
1640,93,725503
1641,93,698861
1642,93,702659
1643,93,68333
1644,93,6817
1645,93,651682
1646,93,618696
1647,93,604073
1648,93,591416
1649,93,580657
1650,93,56252
1651,93,561975
1652,93,538966
1653,93,529088
1654,93,496925
1655,93,493588
1656,93,508131
1657,93,481951
1658,93,481578
1659,93,455569
1660,93,466847
1661,93,458309
1662,93,447939
1663,93,442844
1664,93,429557
1665,93,429739
1666,93,421234
1667,93,407804
1668,93,385401
1669,93,3725
1670,93,371604
1671,93,350985
1672,93,328524
1673,93,318977
1674,93,297485
1675,93,305532
1676,93,266843
1677,93,249035
1678,93,243777
1679,93,205975
1680,93,188775
1681,93,185775
1682,93,148956
1683,93,158323
1684,93,134131
1685,93,107336
1686,93,105198
1687,93,89213
1688,93,52001
1689,93,60135
1690,93,44698
1691,93,20605
1692,93,20331
1693,92,995503
1694,92,986473
1695,92,997025
1696,92,99198
1697,92,966463
1698,92,970045
1699,92,979864
1700,92,973181
1701,92,971553
1702,92,973886
1703,92,970485
1704,92,972218
1705,92,970154
1706,92,98559
1707,92,963954
1708,92,992348
1709,92,962031
1710,92,970598
1711,92,970965
1712,92,964848
1713,92,964778
1714,92,950427
1715,92,950864
1716,92,942575
1717,92,941994
1718,92,909591
1719,92,909772
1720,92,888713
1721,92,894692
1722,92,877281
1723,92,875617
1724,92,882335
1725,92,869281
1726,92,864148
1727,92,859452
1728,92,851339
1729,92,855773
1730,92,843507
1731,92,851131
1732,92,841396
1733,92,845789
1734,92,853669
1735,92,848861
1736,92,844448
1737,92,845098
1738,92,855888
1739,92,872336
1740,92,871097
1741,92,869452
1742,92,888096
1743,92,888764
1744,92,873466
1745,92,904317
1746,92,894012
1747,92,910189
1748,92,906441
1749,92,914181
1750,92,931498
1751,92,934437
1752,92,948382
1753,92,936167
1754,92,949047
1755,92,959349
1756,92,956082
1757,92,969255
1758,92,961649
1759,92,977216
1760,92,985323
1761,92,975981
1762,92,989028
1763,92,982799
1764,92,990067
1765,92,998236
1766,92,994222
1767,92,985026
1768,92,998497
1769,92,986532
1770,93,5182
1771,92,998972
1772,92,983682
1773,92,997404
1774,92,987033
1775,92,993704
1776,93,2367
1777,92,995215
1778,93,13813
1779,92,991258
1780,92,989975
1781,93,15683
1782,93,11082
1783,93,5321
1784,93,22151
1785,93,11857
1786,93,22205
1787,93,18619
1788,93,7105
1789,93,20584
1790,93,1385
1791,93,12241
1792,93,635
1793,92,980426
1794,92,995798
1795,92,983684
1796,92,977088
1797,92,948264
1798,92,94324
1799,92,959699
1800,92,930423
1801,92,92689
1802,92,892963
1803,92,936735
1804,92,939838
1805,92,871636
1806,92,847334
1807,92,915367
1808,92,90691
1809,92,872374
1810,92,893668
1811,92,868089
1812,92,857826
1813,92,861489
1814,92,833887
1815,92,842315
1816,92,831572
1817,92,8176
1818,92,803566
1819,92,787198
1820,92,782841
1821,92,768053
1822,92,758965
1823,92,738832
1824,92,730953
1825,92,727626
1826,92,703245
1827,92,69239
1828,92,689024
1829,92,674968
1830,92,662287
1831,92,643069
1832,92,625348
1833,92,584272
1834,92,577353
1835,92,549397
1836,92,528103
1837,92,520428
1838,92,485751
1839,92,473132
1840,92,474978
1841,92,441858
1842,92,43283
1843,92,418397
1844,92,42662
1845,92,413847
1846,92,412319
1847,92,410835
1848,92,425755
1849,92,41942
1850,92,396496
1851,92,414618
1852,92,39579
1853,92,388499
1854,92,387719
1855,92,377551
1856,92,35952
1857,92,353631
1858,92,347504
1859,92,334396
1860,92,31102
1861,92,275318
1862,92,25322
1863,92,210755
1864,92,170385
1865,92,146861
1866,92,12235
1867,92,101459
1868,92,6542
1869,92,52109
1870,92,47485
1871,92,47627
1872,92,43962
1873,92,29194
1874,92,42578
1875,92,62061
1876,92,82013
1877,92,101857
1878,92,112573
1879,92,125672
1880,92,136821
1881,92,137919
1882,92,148135
1883,92,141459
1884,92,15608
1885,92,145608
1886,92,139475
1887,92,127136
1888,92,110581
1889,92,104474
1890,92,85841
1891,92,52145
1892,92,46616
1893,92,23493
1894,92,6251
1895,91,980803
1896,91,953555
1897,91,940256
1898,91,918271
1899,91,916242
1900,91,905571
1901,91,900475
1902,91,922364
1903,91,907429
1904,91,927468
1905,91,929144
1906,91,950866
1907,91,969835
1908,91,949299
1909,91,970677
1910,91,969684
1911,91,960032
1912,91,960988
1913,91,948052
1914,91,927085
1915,91,916477
1916,91,904351
1917,91,885157
1918,91,862036
1919,91,863453
1920,91,855695
1921,91,842915
1922,91,85823
1923,91,846303
1924,91,84353
1925,91,855125
1926,91,876439
1927,91,875268
1928,91,878068
1929,91,887111
1930,91,878371
1931,91,891294
1932,91,901063
1933,91,890851
1934,91,891166
1935,91,874757
1936,91,871827
1937,91,868115
1938,91,858734
1939,91,855974
1940,91,855463
1941,91,871491
1942,91,881478
1943,91,878363
1944,91,886068
1945,91,897113
1946,91,902049
1947,91,916241
1948,91,921623
1949,91,935842
1950,91,935677
1951,91,957233
1952,91,967401
1953,91,965671
1954,91,97647
1955,91,974109
1956,91,980157
1957,91,978715
1958,91,970013
1959,91,970736
1960,91,967121
1961,91,958043
1962,91,955771
1963,91,953216
1964,91,938894
1965,91,919546
1966,91,913011
1967,91,895667
1968,91,878246
1969,91,87514
1970,91,873392
1971,91,858848
1972,91,859296
1973,91,848778
1974,91,84604
1975,91,829381
1976,91,829679
1977,91,817041
1978,91,805155
1979,91,796403
1980,91,784977
1981,91,774732
1982,91,750584
1983,91,717767
1984,91,704151
1985,91,694574
1986,91,671252
1987,91,649091
1988,91,624995
1989,91,586338
1990,91,562148
1991,91,536948
1992,91,520664
1993,91,505431
1994,91,488575
1995,91,457055
1996,91,425902
1997,91,408537
1998,91,394123
1999,91,372224
2000,91,35322
2001,91,331046
2002,91,315515
2003,91,290373
2004,91,260921
2005,91,24549
2006,91,233497
2007,91,211171
2008,91,188306
2009,91,168926
2010,91,153171
2011,91,126422
2012,91,11166
2013,91,10664
2014,91,92632
2015,91,72706
2016,91,54255
2017,91,31786
2018,91,13348
2019,90,990631
2020,90,965941
2021,90,942333
2022,90,927337
2023,90,902616
2024,90,87435
2025,90,842976
2026,90,810145
2027,90,796324
2028,90,771717
2029,90,748833
2030,90,734431
2031,90,715613
2032,90,695362
2033,90,65962
2034,90,628163
2035,90,602456
2036,90,590241
2037,90,563944
2038,90,549583
2039,90,531994
2040,90,498948
2041,90,472818
2042,90,450129
2043,90,425167
2044,90,405589
2045,90,385511
2046,90,361439
2047,90,335809
2048,90,319839
2049,90,293477
2050,90,273301
2051,90,254096
2052,90,242443
2053,90,244636
2054,90,248164
2055,90,223346
2056,90,207318
2057,90,202515
2058,90,208783
2059,90,196383
2060,90,202268
2061,90,201086
2062,90,202054
2063,90,195219
2064,90,16325
2065,90,145607
2066,90,155979
2067,90,141647
2068,90,121264
2069,90,124228
2070,90,98595
2071,90,77032
2072,90,55726
2073,90,39926
2074,90,26376
2075,89,99989
2076,89,96882
2077,89,941796
2078,89,916804
2079,89,893027
2080,89,878223
2081,89,861928
2082,89,84759
2083,89,817629
2084,89,777511
2085,89,757409
2086,89,741696
2087,89,722158
2088,89,705091
2089,89,676379
2090,89,655332
2091,89,626325
2092,89,596747
2093,89,570146
2094,89,551489
2095,89,526069
2096,89,52214
2097,89,498375
2098,89,456939
2099,89,445219
2100,89,403583
2101,89,383687
2102,89,377564
2103,89,361093
2104,89,347846
2105,89,303704
2106,89,247468
2107,89,227978
2108,89,21941
2109,89,185681
2110,89,153729
2111,89,13067
2112,89,84031
2113,89,30612
2114,88,988553
2115,88,946767
2116,88,889949
2117,88,841282
2118,88,820206
2119,88,805393
2120,88,736929
2121,88,669855
2122,88,62755
2123,88,590177
2124,88,543176
2125,88,514127
2126,88,511722
2127,88,457469
2128,88,406493
2129,88,376896
2130,88,349991
2131,88,32507
2132,88,327839
2133,88,312776
2134,88,271701
2135,88,250297
2136,88,232742
2137,88,222174
2138,88,220034
2139,88,234146
2140,88,252278
2141,88,25924
2142,88,25704
2143,88,256608
2144,88,26431
2145,88,283735
2146,88,325311
2147,88,348962
2148,88,380935
2149,88,431056
2150,88,449873
2151,88,488107
2152,88,506544
2153,88,58582
2154,88,648423
2155,88,686847
2156,88,708312
2157,88,754302
2158,88,810785
2159,88,866822
2160,88,937558
2161,88,987106
2162,89,38005
2163,89,82523
2164,89,146577
2165,89,212698
2166,89,248538
2167,89,310772
2168,89,387551
2169,89,444662
2170,89,480042
2171,89,551816
2172,89,636303
2173,89,687333
2174,89,752181
2175,89,829785
2176,89,892806
2177,89,950627
2178,90,4472
2179,90,69252
2180,90,134143
2181,90,18514
2182,90,222135
2183,90,253158
2184,90,271759
2185,90,30246
2186,90,336855
2187,90,387093
2188,90,404591
2189,90,425297
2190,90,429065
2191,90,437706
2192,90,477992
2193,90,503957
2194,90,526158
2195,90,534141
2196,90,594504
2197,90,625136
2198,90,638985
2199,90,662008
2200,90,687322
2201,90,704789
2202,90,72536
2203,90,735731
2204,90,766914
2205,90,763628
2206,90,781255
2207,90,794495
2208,90,78514
2209,90,787917
2210,90,82521
2211,90,809318
2212,90,800691
2213,90,819013
2214,90,836432
2215,90,842386
2216,90,8275
2217,90,87534
2218,90,864699
2219,90,839365
2220,90,847964
2221,90,811388
2222,90,841949
2223,90,813119
2224,90,78214
2225,90,801674
2226,90,783625
2227,90,748523
2228,90,753539
2229,90,729025
2230,90,711135
2231,90,692748
2232,90,694037
2233,90,648265
2234,90,649102
2235,90,641239
2236,90,598357
2237,90,549912
2238,90,562991
2239,90,527701
2240,90,526122
2241,90,544299
2242,90,528742
2243,90,488015
2244,90,477131
2245,90,498288
2246,90,503361
2247,90,458387
2248,90,462155
2249,90,448339
2250,90,43137
2251,90,419679
2252,90,390695
2253,90,394099
2254,90,358589
2255,90,335576
2256,90,331063
2257,90,304228
2258,90,255816
2259,90,277366
2260,90,241141
2261,90,202624
2262,90,222399
2263,90,21376
2264,90,182492
2265,90,172932
2266,90,170706
2267,90,128323
2268,90,149327
2269,90,133536
2270,90,100579
2271,90,92602
2272,90,78907
2273,90,34929
2274,90,19871
2275,89,984952
2276,89,987158
2277,89,962051
2278,89,944409
2279,89,901678
2280,89,955226
2281,89,948124
2282,89,86947
2283,89,888263
2284,89,926134
2285,89,891014
2286,89,9299
2287,89,865969
2288,89,839874
2289,89,858578
2290,89,923966
2291,89,931976
2292,89,907963
2293,89,883645
2294,89,926237
2295,89,904183
2296,89,923327
2297,89,889404
2298,89,827512
2299,89,920154
2300,89,872616
2301,89,885918
2302,89,869211
2303,89,945298
2304,89,950076
2305,89,785461
2306,89,831644
2307,89,821914
2308,89,73927
2309,89,720815
2310,89,634957
2311,89,651795
2312,89,604445
2313,89,642127
2314,89,60583
2315,89,488554
2316,89,480377
2317,89,414969
2318,89,393407
2319,89,382415
2320,89,331283
2321,89,357156
2322,89,297541
2323,89,292475
2324,89,192793
2325,89,41259
2326,89,55066
2327,88,977911
2328,89,317
2329,88,98429
2330,88,857103
2331,88,894471
2332,88,822843
2333,88,733332
2334,88,659443
2335,88,603441
2336,88,626215
2337,88,422803
2338,88,377072
2339,88,457806
2340,88,369702
2341,88,466985
2342,88,340868
2343,88,329769
2344,88,240187
2345,88,287451
2346,88,255171
2347,88,288209
2348,88,364134
2349,88,238378
2350,88,193596
2351,88,376033
2352,88,189387
2353,88,322263
2354,88,234409
2355,88,136465
2356,88,161882
2357,88,73292
2358,88,149691
2359,88,18453
2360,88,9155
2361,88,87325
2362,87,965649
2363,88,51556
2364,88,99002
2365,88,69661
2366,88,111177
2367,87,941535
2368,88,131437
2369,88,15942
2370,88,38392
2371,88,52624
2372,87,842911
2373,88,99702
2374,88,5601
2375,87,987819
2376,87,970837
2377,87,988409
2378,88,42004
2379,88,4995
2380,87,97441
2381,87,891947
2382,87,790571
2383,87,842022
2384,87,858123
2385,87,864563
2386,87,893791
2387,87,684486
2388,87,748744
2389,87,697886
2390,87,697092
2391,87,619886
2392,87,552658
2393,87,75903
2394,87,570727
2395,87,64737
2396,87,41968
2397,87,513799
2398,87,671907
2399,87,526731
2400,87,564862
2401,87,460394
2402,87,484457
2403,87,488785
2404,87,320018
2405,87,404324
2406,87,406332
2407,87,302009
2408,87,467692
2409,87,316366
2410,87,43367
2411,87,328842
2412,87,279293
2413,87,285827
2414,87,233115
2415,87,296045
2416,87,176699
2417,87,338753
2418,87,466135
2419,87,308521
2420,87,367893
2421,87,35152
2422,87,379017
2423,87,453006
2424,87,325962
2425,87,353212
2426,87,222611
2427,87,429911
2428,87,516755
2429,87,338675
2430,87,466512
2431,87,276732
2432,87,351311
2433,87,39762
2434,87,85006
2435,87,386467
2436,87,306649
2437,87,229895
2438,87,338201
2439,86,954428
2440,87,234966
2441,87,73214
2442,87,40836
2443,87,231881
2444,87,115223
2445,87,408691
2446,86,993745
2447,87,471279
2448,87,320385
2449,87,138262
2450,87,658559